freq,psd_x,psd_y,psd_z,psd_xyz
0.0,4.090e+02,1.760e+01,5.391e+00,4.320e+02
1.6,2.483e+02,2.675e+01,1.823e+01,2.933e+02
3.1,4.645e+01,2.557e+01,1.976e+01,9.178e+01
4.7,3.895e+02,5.593e+01,2.017e+01,4.656e+02
6.3,1.157e+03,7.205e+01,1.970e+01,1.249e+03
7.8,1.803e+03,2.565e+01,1.973e+01,1.849e+03
9.4,2.641e+03,2.034e+01,2.053e+01,2.682e+03
11.0,3.523e+03,2.283e+01,2.022e+01,3.566e+03
12.6,4.441e+03,2.341e+01,2.036e+01,4.484e+03
14.1,5.627e+03,2.542e+01,2.033e+01,5.673e+03
15.7,7.206e+03,2.424e+01,2.023e+01,7.250e+03
17.3,9.421e+03,2.448e+01,2.208e+01,9.468e+03
18.8,1.291e+04,2.972e+01,2.068e+01,1.296e+04
20.4,1.621e+04,3.411e+01,2.289e+01,1.627e+04
22.0,1.809e+04,3.944e+01,2.690e+01,1.816e+04
23.5,1.994e+04,5.079e+01,2.414e+01,2.002e+04
25.1,2.264e+04,5.953e+01,2.151e+01,2.272e+04
26.7,2.643e+04,6.303e+01,1.982e+01,2.651e+04
28.3,2.796e+04,5.826e+01,2.019e+01,2.803e+04
29.8,3.163e+04,6.565e+01,2.119e+01,3.172e+04
31.4,3.873e+04,7.516e+01,2.244e+01,3.883e+04
33.0,4.501e+04,7.597e+01,2.414e+01,4.511e+04
34.5,5.234e+04,7.328e+01,3.405e+01,5.245e+04
36.1,6.394e+04,8.474e+01,5.462e+01,6.408e+04
37.7,7.604e+04,6.737e+01,1.151e+02,7.622e+04
39.2,8.776e+04,5.318e+01,2.284e+02,8.805e+04
40.8,1.061e+05,8.651e+01,3.336e+02,1.065e+05
42.4,1.380e+05,2.619e+02,3.587e+02,1.386e+05
44.0,1.770e+05,7.639e+02,3.264e+02,1.781e+05
45.5,2.127e+05,1.599e+03,1.918e+02,2.144e+05
47.1,2.383e+05,2.340e+03,1.439e+02,2.408e+05
48.7,2.792e+05,1.786e+03,5.524e+02,2.815e+05
50.2,3.710e+05,1.202e+03,1.366e+03,3.736e+05
51.8,5.141e+05,1.768e+03,1.582e+03,5.175e+05
53.4,7.733e+05,3.642e+03,1.738e+03,7.786e+05
54.9,1.339e+06,1.296e+04,2.076e+03,1.354e+06
56.5,1.853e+06,2.402e+04,2.591e+03,1.879e+06
58.1,1.842e+06,2.630e+04,2.804e+03,1.871e+06
59.7,1.547e+06,2.233e+04,3.104e+03,1.573e+06
61.2,1.194e+06,1.533e+04,2.486e+03,1.212e+06
62.8,8.722e+05,1.004e+04,1.366e+03,8.836e+05
64.4,6.302e+05,7.502e+03,6.830e+02,6.384e+05
65.9,4.699e+05,5.822e+03,4.500e+02,4.761e+05
67.5,3.655e+05,4.831e+03,4.687e+02,3.708e+05
69.1,2.995e+05,4.943e+03,5.718e+02,3.050e+05
70.6,2.540e+05,4.739e+03,6.036e+02,2.594e+05
72.2,1.900e+05,3.689e+03,5.020e+02,1.942e+05
73.8,1.255e+05,2.914e+03,6.078e+02,1.290e+05
75.4,7.934e+04,2.556e+03,8.012e+02,8.270e+04
76.9,4.782e+04,2.067e+03,8.067e+02,5.069e+04
78.5,2.717e+04,1.208e+03,6.157e+02,2.899e+04
80.1,1.722e+04,7.280e+02,5.914e+02,1.854e+04
81.6,1.561e+04,5.985e+02,6.216e+02,1.683e+04
83.2,1.541e+04,8.594e+02,6.383e+02,1.690e+04
84.8,1.731e+04,1.205e+03,5.662e+02,1.908e+04
86.3,2.384e+04,1.672e+03,3.838e+02,2.589e+04
87.9,4.140e+04,3.349e+03,4.258e+02,4.518e+04
89.5,6.429e+04,6.637e+03,8.075e+02,7.173e+04
91.1,9.935e+04,1.248e+04,1.696e+03,1.135e+05
92.6,1.560e+05,2.172e+04,3.026e+03,1.807e+05
94.2,2.009e+05,3.012e+04,4.110e+03,2.352e+05
95.8,2.279e+05,3.856e+04,5.242e+03,2.717e+05
97.3,2.762e+05,5.527e+04,6.628e+03,3.381e+05
98.9,2.721e+05,6.059e+04,6.672e+03,3.394e+05
100.5,2.521e+05,6.077e+04,6.057e+03,3.190e+05
102.0,2.243e+05,5.727e+04,4.768e+03,2.863e+05
103.6,1.940e+05,5.444e+04,3.334e+03,2.518e+05
105.2,1.934e+05,6.144e+04,2.251e+03,2.571e+05
106.8,2.072e+05,7.505e+04,2.221e+03,2.845e+05
108.3,2.171e+05,9.056e+04,3.096e+03,3.108e+05
109.9,1.924e+05,9.224e+04,3.057e+03,2.877e+05
111.5,1.549e+05,8.514e+04,2.133e+03,2.422e+05
113.0,1.186e+05,7.704e+04,1.473e+03,1.971e+05
114.6,8.869e+04,7.126e+04,1.341e+03,1.613e+05
116.2,6.557e+04,6.580e+04,1.578e+03,1.329e+05
117.7,4.925e+04,6.080e+04,2.143e+03,1.122e+05
119.3,4.132e+04,6.074e+04,2.611e+03,1.047e+05
120.9,3.531e+04,6.210e+04,3.270e+03,1.007e+05
122.5,3.300e+04,6.037e+04,4.449e+03,9.781e+04
124.0,3.495e+04,5.617e+04,6.467e+03,9.758e+04
125.6,3.578e+04,5.070e+04,8.198e+03,9.467e+04
127.2,3.615e+04,4.597e+04,9.564e+03,9.168e+04
128.7,4.018e+04,4.056e+04,1.164e+04,9.237e+04
130.3,4.643e+04,3.338e+04,1.372e+04,9.353e+04
131.9,4.897e+04,2.580e+04,1.431e+04,8.908e+04
133.4,3.307e+04,1.257e+04,1.006e+04,5.571e+04
135.0,2.083e+04,5.130e+03,6.822e+03,3.278e+04
136.6,1.979e+04,4.287e+03,6.380e+03,3.046e+04
138.2,1.900e+04,3.636e+03,6.018e+03,2.865e+04
139.7,1.788e+04,2.997e+03,5.609e+03,2.649e+04
141.3,1.688e+04,2.344e+03,5.153e+03,2.438e+04
142.9,1.583e+04,1.717e+03,4.670e+03,2.222e+04
144.4,1.495e+04,1.205e+03,4.194e+03,2.034e+04
146.0,1.500e+04,9.449e+02,4.150e+03,2.009e+04
147.6,1.536e+04,8.708e+02,4.325e+03,2.056e+04
149.1,1.610e+04,9.148e+02,4.572e+03,2.158e+04
150.7,1.830e+04,1.080e+03,5.275e+03,2.466e+04
152.3,2.043e+04,1.423e+03,6.015e+03,2.787e+04
153.9,2.312e+04,2.013e+03,7.078e+03,3.221e+04
155.4,2.832e+04,2.803e+03,9.081e+03,4.021e+04
157.0,3.862e+04,4.111e+03,1.279e+04,5.552e+04
158.6,5.155e+04,6.123e+03,1.733e+04,7.500e+04
160.1,6.366e+04,8.884e+03,2.167e+04,9.422e+04
161.7,6.511e+04,1.009e+04,2.179e+04,9.699e+04
163.3,5.426e+04,8.960e+03,1.834e+04,8.156e+04
164.8,4.224e+04,7.064e+03,1.379e+04,6.309e+04
166.4,4.018e+04,6.763e+03,1.283e+04,5.977e+04
168.0,3.808e+04,6.745e+03,1.299e+04,5.782e+04
169.6,3.539e+04,6.507e+03,1.303e+04,5.492e+04
171.1,3.069e+04,6.140e+03,1.183e+04,4.866e+04
172.7,2.491e+04,5.668e+03,1.009e+04,4.067e+04
174.3,2.354e+04,5.724e+03,9.807e+03,3.907e+04
175.8,2.342e+04,5.798e+03,1.006e+04,3.927e+04
177.4,2.376e+04,6.524e+03,1.083e+04,4.112e+04
179.0,2.404e+04,7.292e+03,1.155e+04,4.287e+04
180.5,2.395e+04,7.786e+03,1.191e+04,4.364e+04
182.1,2.391e+04,8.121e+03,1.212e+04,4.414e+04
183.7,2.326e+04,7.968e+03,1.190e+04,4.313e+04
185.3,2.300e+04,7.719e+03,1.174e+04,4.246e+04
186.8,2.238e+04,7.517e+03,1.138e+04,4.128e+04
188.4,2.084e+04,6.988e+03,1.059e+04,3.842e+04
190.0,1.953e+04,6.362e+03,9.826e+03,3.572e+04
191.5,1.846e+04,5.841e+03,9.275e+03,3.358e+04
193.1,1.807e+04,5.590e+03,9.068e+03,3.272e+04
194.7,1.710e+04,5.160e+03,8.514e+03,3.077e+04
196.2,1.630e+04,4.645e+03,8.053e+03,2.900e+04
197.8,1.528e+04,4.251e+03,7.523e+03,2.705e+04
199.4,1.347e+04,3.580e+03,6.532e+03,2.358e+04
