freq,psd_x,psd_y,psd_z,psd_xyz
0.0,4.587e+02,1.599e+01,3.359e+01,5.082e+02
1.6,2.859e+02,3.011e+01,7.798e+01,3.939e+02
3.1,5.312e+01,3.792e+01,7.928e+01,1.703e+02
4.7,3.902e+02,1.482e+02,8.195e+01,6.204e+02
6.3,1.210e+03,1.837e+02,7.459e+01,1.468e+03
7.8,1.877e+03,3.487e+01,7.125e+01,1.983e+03
9.4,2.678e+03,2.066e+01,6.683e+01,2.766e+03
11.0,3.552e+03,2.062e+01,7.245e+01,3.645e+03
12.6,4.555e+03,2.124e+01,7.360e+01,4.650e+03
14.1,6.065e+03,2.172e+01,8.326e+01,6.170e+03
15.7,8.215e+03,2.293e+01,9.807e+01,8.336e+03
17.3,1.130e+04,2.549e+01,9.265e+01,1.142e+04
18.8,1.514e+04,2.621e+01,9.442e+01,1.526e+04
20.4,1.860e+04,3.220e+01,1.039e+02,1.874e+04
22.0,2.234e+04,5.000e+01,1.093e+02,2.250e+04
23.5,2.657e+04,1.061e+02,1.037e+02,2.678e+04
25.1,3.164e+04,2.019e+02,1.064e+02,3.195e+04
26.7,3.640e+04,3.185e+02,1.163e+02,3.684e+04
28.3,3.930e+04,4.799e+02,1.184e+02,3.990e+04
29.8,4.600e+04,6.987e+02,1.079e+02,4.681e+04
31.4,5.673e+04,9.720e+02,1.141e+02,5.782e+04
33.0,6.568e+04,1.459e+03,1.552e+02,6.730e+04
34.5,7.700e+04,2.347e+03,2.335e+02,7.958e+04
36.1,9.034e+04,2.822e+03,3.615e+02,9.353e+04
37.7,1.065e+05,2.757e+03,5.416e+02,1.098e+05
39.2,1.205e+05,2.636e+03,6.887e+02,1.239e+05
40.8,1.472e+05,2.713e+03,8.586e+02,1.508e+05
42.4,1.951e+05,2.969e+03,1.072e+03,1.991e+05
44.0,2.543e+05,3.106e+03,1.265e+03,2.587e+05
45.5,3.479e+05,3.284e+03,1.458e+03,3.527e+05
47.1,4.543e+05,3.979e+03,1.842e+03,4.602e+05
48.7,4.957e+05,4.382e+03,3.099e+03,5.032e+05
50.2,5.515e+05,4.055e+03,5.019e+03,5.606e+05
51.8,8.644e+05,4.771e+03,9.012e+03,8.782e+05
53.4,1.399e+06,6.084e+03,2.000e+04,1.425e+06
54.9,1.674e+06,7.477e+03,4.669e+04,1.729e+06
56.5,1.512e+06,6.985e+03,7.618e+04,1.595e+06
58.1,1.187e+06,6.808e+03,7.827e+04,1.272e+06
59.6,8.810e+05,8.012e+03,5.999e+04,9.490e+05
61.2,6.614e+05,8.654e+03,4.387e+04,7.139e+05
62.8,5.139e+05,9.384e+03,3.341e+04,5.567e+05
64.4,4.179e+05,1.186e+04,2.627e+04,4.560e+05
65.9,3.569e+05,1.600e+04,2.084e+04,3.937e+05
67.5,3.170e+05,2.210e+04,1.605e+04,3.552e+05
69.1,2.836e+05,2.797e+04,1.182e+04,3.234e+05
70.6,2.480e+05,3.068e+04,8.990e+03,2.877e+05
72.2,1.979e+05,2.612e+04,7.801e+03,2.318e+05
73.8,1.419e+05,1.803e+04,6.711e+03,1.666e+05
75.3,9.356e+04,1.183e+04,5.416e+03,1.108e+05
76.9,6.738e+04,8.031e+03,5.015e+03,8.043e+04
78.5,5.454e+04,7.264e+03,4.593e+03,6.640e+04
80.1,4.631e+04,6.552e+03,3.941e+03,5.680e+04
81.6,3.160e+04,4.570e+03,2.849e+03,3.901e+04
83.2,1.932e+04,2.717e+03,2.045e+03,2.408e+04
84.8,1.245e+04,1.734e+03,1.600e+03,1.578e+04
86.3,1.141e+04,1.416e+03,1.675e+03,1.451e+04
87.9,2.035e+04,1.575e+03,3.000e+03,2.492e+04
89.5,4.119e+04,1.915e+03,6.303e+03,4.941e+04
91.0,7.268e+04,2.220e+03,1.177e+04,8.667e+04
92.6,1.112e+05,2.342e+03,1.898e+04,1.326e+05
94.2,1.212e+05,2.170e+03,2.222e+04,1.455e+05
95.7,1.128e+05,1.834e+03,2.287e+04,1.375e+05
97.3,1.048e+05,1.640e+03,2.295e+04,1.294e+05
98.9,8.680e+04,1.420e+03,2.110e+04,1.093e+05
100.5,6.517e+04,1.105e+03,1.788e+04,8.415e+04
102.0,5.102e+04,1.212e+03,1.597e+04,6.820e+04
103.6,4.200e+04,1.652e+03,1.461e+04,5.827e+04
105.2,3.492e+04,2.265e+03,1.334e+04,5.053e+04
106.7,3.432e+04,2.952e+03,1.439e+04,5.167e+04
108.3,3.467e+04,3.405e+03,1.593e+04,5.400e+04
109.9,3.288e+04,4.328e+03,1.814e+04,5.535e+04
111.4,2.920e+04,5.425e+03,1.971e+04,5.434e+04
113.0,2.607e+04,6.441e+03,2.075e+04,5.326e+04
114.6,2.387e+04,6.626e+03,2.209e+04,5.259e+04
116.2,2.295e+04,7.499e+03,2.454e+04,5.499e+04
117.7,2.298e+04,8.894e+03,2.685e+04,5.873e+04
119.3,2.341e+04,9.807e+03,2.878e+04,6.199e+04
120.9,2.395e+04,1.073e+04,3.041e+04,6.510e+04
122.4,2.447e+04,1.206e+04,3.143e+04,6.796e+04
124.0,2.555e+04,1.422e+04,3.318e+04,7.296e+04
125.6,2.734e+04,1.738e+04,3.552e+04,8.024e+04
127.1,3.005e+04,2.140e+04,3.742e+04,8.887e+04
128.7,3.451e+04,2.691e+04,3.888e+04,1.003e+05
130.3,4.158e+04,3.283e+04,3.882e+04,1.132e+05
131.9,4.969e+04,3.851e+04,3.584e+04,1.240e+05
133.4,4.047e+04,3.439e+04,2.190e+04,9.676e+04
135.0,3.440e+04,3.246e+04,1.093e+04,7.778e+04
136.6,4.067e+04,3.551e+04,8.727e+03,8.490e+04
138.1,4.452e+04,3.510e+04,6.418e+03,8.604e+04
139.7,4.716e+04,3.409e+04,4.965e+03,8.622e+04
141.3,4.962e+04,3.325e+04,4.508e+03,8.738e+04
142.8,5.165e+04,3.256e+04,4.441e+03,8.865e+04
144.4,5.367e+04,3.190e+04,4.740e+03,9.031e+04
146.0,5.643e+04,3.175e+04,5.758e+03,9.394e+04
147.5,6.115e+04,3.248e+04,7.675e+03,1.013e+05
149.1,7.055e+04,3.532e+04,1.075e+04,1.166e+05
150.7,7.699e+04,3.689e+04,1.345e+04,1.273e+05
152.3,7.740e+04,3.575e+04,1.567e+04,1.288e+05
153.8,7.571e+04,3.407e+04,1.715e+04,1.269e+05
155.4,7.085e+04,3.129e+04,1.826e+04,1.204e+05
157.0,6.511e+04,2.853e+04,1.916e+04,1.128e+05
158.5,5.734e+04,2.502e+04,1.910e+04,1.015e+05
160.1,4.877e+04,2.093e+04,1.757e+04,8.727e+04
161.7,3.954e+04,1.649e+04,1.521e+04,7.123e+04
163.2,3.179e+04,1.254e+04,1.208e+04,5.640e+04
164.8,2.736e+04,1.028e+04,9.534e+03,4.717e+04
166.4,2.363e+04,8.655e+03,7.808e+03,4.009e+04
168.0,2.146e+04,7.789e+03,6.771e+03,3.602e+04
169.5,1.887e+04,6.959e+03,5.944e+03,3.177e+04
171.1,1.354e+04,5.307e+03,5.589e+03,2.444e+04
172.7,1.168e+04,5.261e+03,7.185e+03,2.412e+04
174.2,1.419e+04,6.283e+03,8.236e+03,2.871e+04
175.8,1.487e+04,6.477e+03,8.012e+03,2.936e+04
177.4,1.395e+04,6.049e+03,7.113e+03,2.711e+04
178.9,1.343e+04,5.794e+03,6.638e+03,2.586e+04
180.5,1.417e+04,6.247e+03,7.382e+03,2.780e+04
182.1,1.473e+04,6.514e+03,8.183e+03,2.943e+04
183.7,1.489e+04,6.716e+03,9.007e+03,3.062e+04
185.2,1.468e+04,6.776e+03,9.497e+03,3.095e+04
186.8,1.451e+04,6.785e+03,9.924e+03,3.122e+04
188.4,1.424e+04,6.842e+03,1.064e+04,3.172e+04
189.9,1.365e+04,6.690e+03,1.082e+04,3.116e+04
191.5,1.324e+04,6.540e+03,1.139e+04,3.118e+04
193.1,1.273e+04,6.601e+03,1.211e+04,3.144e+04
194.6,1.228e+04,6.512e+03,1.268e+04,3.147e+04
196.2,1.085e+04,5.763e+03,1.152e+04,2.813e+04
197.8,9.693e+03,5.295e+03,1.101e+04,2.600e+04
199.3,9.107e+03,5.238e+03,1.182e+04,2.617e+04
